profile,query_number,direction,group_off,feature_off,base_fraction,proximity_weight,sparsity_weight,diversity_weight,returned,reference_valid_returned,returned_validity,conditional_returned_validity,valid_cfe_yield_at_k,completeness_at_k,coverage_at_1,full_k_success,proximity,sparsity,diversity,plausibility,plausibility_distance,plausibility_inlier_rate,target_data_support,local_surrogate_fidelity,fidelity,fidelity_oracle_evaluations,constraint_validity,mean_target_logit_margin,minimum_target_logit_margin,robust_validity,robust_cfe_fraction_95,robust_completeness_at_k,robust_full_k_success,changed_set_dice,runtime_seconds,generation_time_to_k_or_cap_seconds,time_to_full_k_seconds,time_per_returned_cfe_seconds,candidate_evaluations,candidate_throughput_per_second,rounds_used,k1_achieved,rounds_to_k1,rounds_to_k1_or_cap,candidates_to_k1,candidates_to_k1_or_cap,time_to_k1_seconds,time_to_k1_or_cap_seconds,k3_achieved,rounds_to_k3,rounds_to_k3_or_cap,candidates_to_k3,candidates_to_k3_or_cap,time_to_k3_seconds,time_to_k3_or_cap_seconds,k5_achieved,rounds_to_k5,rounds_to_k5_or_cap,candidates_to_k5,candidates_to_k5_or_cap,time_to_k5_seconds,time_to_k5_or_cap_seconds,k10_achieved,rounds_to_k10,rounds_to_k10_or_cap,candidates_to_k10,candidates_to_k10_or_cap,time_to_k10_seconds,time_to_k10_or_cap_seconds,group_sparsity
balanced,0,disease_to_no_disease,0.1,0.015,0.5,0.16,0.5,0.5,10,10,1.0,1.0,1.0,1.0,1.0,1.0,0.10145338624715805,0.6777777777777777,0.0816294476389885,0.7603473741221118,0.7603473741221118,0.0,0.0,0.9090909090909091,0.9090909090909091,81,1.0,5.0080766677856445,0.6270928382873535,0.9833333333333334,0.9,0.9,0.0,0.9038657910716734,2.176534977999836,2.176534977999836,2.176534977999836,0.2176534977999836,512,235.23628389859886,8,1.0,1.0,1.0,64.0,64.0,0.3205519279999862,0.3205519279999862,1.0,1.0,1.0,64.0,64.0,0.3205519279999862,0.3205519279999862,1.0,1.0,1.0,64.0,64.0,0.3205519279999862,0.3205519279999862,1.0,1.0,1.0,64.0,64.0,0.3205519279999862,0.3205519279999862,0.6777777777777777
balanced,1,disease_to_no_disease,0.1,0.015,0.5,0.16,0.5,0.5,10,10,1.0,1.0,1.0,1.0,1.0,1.0,0.11459854990243912,0.6777777777777777,0.0953652411699295,0.863214179083502,0.863214179083502,0.0,0.12000000000000002,0.9090909090909091,0.9090909090909091,81,1.0,10.25261116027832,0.5343923568725586,0.9833333333333334,0.9,0.9,0.0,0.9359308746808747,2.0790569900000264,2.0790569900000264,2.0790569900000264,0.20790569900000264,512,246.26549558893694,8,1.0,1.0,1.0,64.0,64.0,0.25773282699992706,0.25773282699992706,1.0,1.0,1.0,64.0,64.0,0.25773282699992706,0.25773282699992706,1.0,1.0,1.0,64.0,64.0,0.25773282699992706,0.25773282699992706,1.0,2.0,2.0,128.0,128.0,0.5143628779997016,0.5143628779997016,0.6777777777777777
balanced,2,disease_to_no_disease,0.1,0.015,0.5,0.16,0.5,0.5,10,10,1.0,1.0,1.0,1.0,1.0,1.0,0.0598938874900341,0.788888888888889,0.03972358629107475,0.6826028528959359,0.6826028528959359,0.0,0.72,0.9090909090909091,0.9090909090909091,81,1.0,2.013699531555176,0.36579084396362305,0.9666666666666666,0.9,0.9,0.0,0.8927654752654753,2.0540189370003645,2.0540189370003645,2.0540189370003645,0.20540189370003645,512,249.26741948529033,8,1.0,1.0,1.0,64.0,64.0,0.24991759100066702,0.24991759100066702,1.0,1.0,1.0,64.0,64.0,0.24991759100066702,0.24991759100066702,1.0,1.0,1.0,64.0,64.0,0.24991759100066702,0.24991759100066702,1.0,2.0,2.0,128.0,128.0,0.5021463020002557,0.5021463020002557,0.788888888888889
balanced,3,disease_to_no_disease,0.1,0.015,0.5,0.16,0.5,0.5,10,10,1.0,1.0,1.0,1.0,1.0,1.0,0.07776527106761932,0.7444444444444445,0.07807838171720505,0.592436440785325,0.592436440785325,0.1,0.72,0.7575757575757576,0.7575757575757576,81,1.0,10.713459968566895,1.8655543327331543,1.0,1.0,1.0,1.0,0.9467448292448294,2.147568030999537,2.147568030999537,2.147568030999537,0.21475680309995368,512,238.4092110747715,8,1.0,1.0,1.0,64.0,64.0,0.1794766819994038,0.1794766819994038,1.0,1.0,1.0,64.0,64.0,0.1794766819994038,0.1794766819994038,1.0,1.0,1.0,64.0,64.0,0.1794766819994038,0.1794766819994038,1.0,1.0,1.0,64.0,64.0,0.1794766819994038,0.1794766819994038,0.7444444444444445
balanced,4,no_disease_to_disease,0.1,0.015,0.5,0.16,0.5,0.5,10,10,1.0,1.0,1.0,1.0,1.0,1.0,0.11677094548940659,0.5277777777777778,0.11401794105768204,0.826166364380122,0.826166364380122,0.0,1.0,0.9696969696969697,0.9696969696969697,81,1.0,3.515770435333252,0.1405324935913086,0.8833333333333334,0.7,0.7,0.0,0.9557197528134062,2.224113832000512,2.224113832000512,2.224113832000512,0.22241138320005122,512,230.2040447001195,8,1.0,1.0,1.0,64.0,64.0,0.27974799500043446,0.27974799500043446,1.0,1.0,1.0,64.0,64.0,0.27974799500043446,0.27974799500043446,1.0,1.0,1.0,64.0,64.0,0.27974799500043446,0.27974799500043446,1.0,1.0,1.0,64.0,64.0,0.27974799500043446,0.27974799500043446,0.5277777777777778
balanced,5,no_disease_to_disease,0.1,0.015,0.5,0.16,0.5,0.5,10,10,1.0,1.0,1.0,1.0,1.0,1.0,0.10931482166051865,0.7277777777777779,0.10374495387077332,0.7485093441641606,0.7485093441641606,0.0,0.96,0.7272727272727273,0.7272727272727273,81,1.0,3.850247859954834,0.23361921310424805,0.8833333333333334,0.7,0.7,0.0,0.9414986864986865,2.104022931000145,2.104022931000145,2.104022931000145,0.21040229310001451,512,243.34335546268088,8,1.0,1.0,1.0,64.0,64.0,0.2523656920002395,0.2523656920002395,1.0,1.0,1.0,64.0,64.0,0.2523656920002395,0.2523656920002395,1.0,1.0,1.0,64.0,64.0,0.2523656920002395,0.2523656920002395,1.0,2.0,2.0,128.0,128.0,0.5059308140007488,0.5059308140007488,0.7277777777777779
balanced,6,no_disease_to_disease,0.1,0.015,0.5,0.16,0.5,0.5,10,10,1.0,1.0,1.0,1.0,1.0,1.0,0.1399172991514206,0.6722222222222222,0.14384549856185913,0.8552087829371345,0.8552087829371345,0.0,0.9400000000000001,0.8787878787878788,0.8787878787878788,81,1.0,8.510289192199707,0.7000555992126465,0.9833333333333334,0.9,0.9,0.0,0.9536412688618571,2.058884844000204,2.058884844000204,2.058884844000204,0.2058884844000204,512,248.6783083046238,8,1.0,1.0,1.0,64.0,64.0,0.25062348099982046,0.25062348099982046,1.0,1.0,1.0,64.0,64.0,0.25062348099982046,0.25062348099982046,1.0,1.0,1.0,64.0,64.0,0.25062348099982046,0.25062348099982046,1.0,1.0,1.0,64.0,64.0,0.25062348099982046,0.25062348099982046,0.6722222222222222
balanced,7,no_disease_to_disease,0.1,0.015,0.5,0.16,0.5,0.5,10,10,1.0,1.0,1.0,1.0,1.0,1.0,0.07275472581386566,0.7111111111111111,0.047158658504486084,0.7337514951128461,0.7337514951128461,0.0,0.74,0.9090909090909091,0.9090909090909091,81,1.0,2.4814231395721436,0.7415947914123535,0.9833333333333334,0.9,0.9,0.0,0.9262750212750213,2.130001628000173,2.130001628000173,2.130001628000173,0.21300016280001727,512,240.37540313089303,8,1.0,1.0,1.0,64.0,64.0,0.25111262900009024,0.25111262900009024,1.0,1.0,1.0,64.0,64.0,0.25111262900009024,0.25111262900009024,1.0,1.0,1.0,64.0,64.0,0.25111262900009024,0.25111262900009024,1.0,1.0,1.0,64.0,64.0,0.25111262900009024,0.25111262900009024,0.7111111111111111
sparse,0,disease_to_no_disease,0.12,0.025,0.5,0.12,0.72,1.0,10,10,1.0,1.0,1.0,1.0,1.0,1.0,0.09306584298610687,0.7277777777777779,0.08020693063735962,0.776429220668435,0.776429220668435,0.0,0.0,0.7878787878787878,0.7878787878787878,81,1.0,3.564744234085083,0.20134210586547852,0.9,0.8,0.8,0.0,0.9029954304954305,2.0866049340002064,2.0866049340002064,2.0866049340002064,0.20866049340002063,512,245.3746713894952,8,1.0,1.0,1.0,64.0,64.0,0.2520775279999725,0.2520775279999725,1.0,1.0,1.0,64.0,64.0,0.2520775279999725,0.2520775279999725,1.0,1.0,1.0,64.0,64.0,0.2520775279999725,0.2520775279999725,1.0,1.0,1.0,64.0,64.0,0.2520775279999725,0.2520775279999725,0.7277777777777779
sparse,1,disease_to_no_disease,0.12,0.025,0.5,0.12,0.72,1.0,10,10,1.0,1.0,1.0,1.0,1.0,1.0,0.12366175651550293,0.7166666666666667,0.09550664573907852,0.8802471215735345,0.8802471215735345,0.0,0.08,1.0,1.0,81,1.0,13.596437454223633,1.8889517784118652,1.0,1.0,1.0,1.0,0.9367837717837718,2.0915452429999277,2.0915452429999277,2.0915452429999277,0.20915452429999276,512,244.79508713167132,8,1.0,1.0,1.0,64.0,64.0,0.2547571080003763,0.2547571080003763,1.0,1.0,1.0,64.0,64.0,0.2547571080003763,0.2547571080003763,1.0,1.0,1.0,64.0,64.0,0.2547571080003763,0.2547571080003763,1.0,2.0,2.0,128.0,128.0,0.5312868500004697,0.5312868500004697,0.7166666666666667
sparse,2,disease_to_no_disease,0.12,0.025,0.5,0.12,0.72,1.0,10,10,1.0,1.0,1.0,1.0,1.0,1.0,0.07022644579410553,0.788888888888889,0.05093054100871086,0.6871265831528092,0.6871265831528092,0.0,0.6799999999999999,0.9090909090909091,0.9090909090909091,81,1.0,3.5215988159179688,0.5802450180053711,1.0,1.0,1.0,1.0,0.89246151996152,2.0356367720005437,2.0356367720005437,2.0356367720005437,0.20356367720005436,512,251.51834897186816,8,1.0,1.0,1.0,64.0,64.0,0.24324809000063397,0.24324809000063397,1.0,1.0,1.0,64.0,64.0,0.24324809000063397,0.24324809000063397,1.0,2.0,2.0,128.0,128.0,0.4963707290007733,0.4963707290007733,1.0,2.0,2.0,128.0,128.0,0.4963707290007733,0.4963707290007733,0.788888888888889
sparse,3,disease_to_no_disease,0.12,0.025,0.5,0.12,0.72,1.0,10,10,1.0,1.0,1.0,1.0,1.0,1.0,0.06269203126430511,0.788888888888889,0.06631793081760406,0.5303032694470385,0.5303032694470385,0.1,0.8,0.7878787878787878,0.7878787878787878,81,1.0,10.211640357971191,2.380885601043701,1.0,1.0,1.0,1.0,0.9261087061087061,2.1268831710003724,2.1268831710003724,2.1268831710003724,0.21268831710003724,512,240.72784390840917,8,1.0,1.0,1.0,64.0,64.0,0.2583432470000844,0.2583432470000844,1.0,1.0,1.0,64.0,64.0,0.2583432470000844,0.2583432470000844,1.0,1.0,1.0,64.0,64.0,0.2583432470000844,0.2583432470000844,1.0,1.0,1.0,64.0,64.0,0.2583432470000844,0.2583432470000844,0.788888888888889
sparse,4,no_disease_to_disease,0.12,0.025,0.5,0.12,0.72,1.0,10,10,1.0,1.0,1.0,1.0,1.0,1.0,0.1027367115020752,0.5333333333333333,0.08892430365085602,0.7033400421367958,0.7033400421367958,0.0,0.9800000000000001,0.9393939393939394,0.9393939393939394,81,1.0,7.297203063964844,0.32408761978149414,0.9,0.8,0.8,0.0,0.9517386194243779,2.10917288499968,2.10917288499968,2.10917288499968,0.210917288499968,512,242.74918554155303,8,1.0,1.0,1.0,64.0,64.0,0.2533667889993012,0.2533667889993012,1.0,1.0,1.0,64.0,64.0,0.2533667889993012,0.2533667889993012,1.0,1.0,1.0,64.0,64.0,0.2533667889993012,0.2533667889993012,1.0,1.0,1.0,64.0,64.0,0.2533667889993012,0.2533667889993012,0.5333333333333333
sparse,5,no_disease_to_disease,0.12,0.025,0.5,0.12,0.72,1.0,10,10,1.0,1.0,1.0,1.0,1.0,1.0,0.09156534820795059,0.8222222222222223,0.058297015726566315,0.7953803198618967,0.7953803198618967,0.0,0.9800000000000001,0.8484848484848485,0.8484848484848485,81,1.0,4.183261394500732,0.8921904563903809,1.0,1.0,1.0,1.0,0.9039285714285714,1.988470898999367,1.988470898999367,1.988470898999367,0.19884708989993669,512,257.48428114167893,8,1.0,1.0,1.0,64.0,64.0,0.17535283500001242,0.17535283500001242,1.0,1.0,1.0,64.0,64.0,0.17535283500001242,0.17535283500001242,1.0,1.0,1.0,64.0,64.0,0.17535283500001242,0.17535283500001242,1.0,1.0,1.0,64.0,64.0,0.17535283500001242,0.17535283500001242,0.8222222222222223
sparse,6,no_disease_to_disease,0.12,0.025,0.5,0.12,0.72,1.0,10,10,1.0,1.0,1.0,1.0,1.0,1.0,0.12380710989236832,0.7388888888888889,0.12455428391695023,1.0281770886053914,1.0281770886053914,0.0,0.96,0.9393939393939394,0.9393939393939394,81,1.0,9.554667472839355,3.4199166297912598,1.0,1.0,1.0,1.0,0.9411282236282237,2.0527062969995313,2.0527062969995313,2.0527062969995313,0.20527062969995313,512,249.42681802476923,8,1.0,1.0,1.0,64.0,64.0,0.2520857099998466,0.2520857099998466,1.0,1.0,1.0,64.0,64.0,0.2520857099998466,0.2520857099998466,1.0,1.0,1.0,64.0,64.0,0.2520857099998466,0.2520857099998466,1.0,2.0,2.0,128.0,128.0,0.5133035999997446,0.5133035999997446,0.7388888888888889
sparse,7,no_disease_to_disease,0.12,0.025,0.5,0.12,0.72,1.0,10,10,1.0,1.0,1.0,1.0,1.0,1.0,0.09052357822656631,0.6944444444444444,0.05018662288784981,0.7270021076487615,0.7270021076487615,0.0,0.9,0.9393939393939394,0.9393939393939394,81,1.0,8.98636531829834,0.7415947914123535,1.0,1.0,1.0,1.0,0.9348096348096349,2.1151655980002033,2.1151655980002033,2.1151655980002033,0.21151655980002032,512,242.06142558486846,8,1.0,1.0,1.0,64.0,64.0,0.2549638529999356,0.2549638529999356,1.0,1.0,1.0,64.0,64.0,0.2549638529999356,0.2549638529999356,1.0,1.0,1.0,64.0,64.0,0.2549638529999356,0.2549638529999356,1.0,1.0,1.0,64.0,64.0,0.2549638529999356,0.2549638529999356,0.6944444444444444
diverse,0,disease_to_no_disease,0.1,0.015,0.65,0.12,0.55,3.0,10,10,1.0,1.0,1.0,1.0,1.0,1.0,0.08172409981489182,0.788888888888889,0.08407167345285416,0.85235525733442,0.85235525733442,0.0,0.02,0.9696969696969697,0.9696969696969697,81,1.0,9.06082534790039,0.17265033721923828,0.9333333333333332,0.9,0.9,0.0,0.8636493027669498,2.0944719400004033,2.0944719400004033,2.0944719400004033,0.20944719400004033,512,244.45302427871218,8,1.0,1.0,1.0,64.0,64.0,0.25290144000064174,0.25290144000064174,1.0,1.0,1.0,64.0,64.0,0.25290144000064174,0.25290144000064174,1.0,1.0,1.0,64.0,64.0,0.25290144000064174,0.25290144000064174,1.0,1.0,1.0,64.0,64.0,0.25290144000064174,0.25290144000064174,0.788888888888889
diverse,1,disease_to_no_disease,0.1,0.015,0.65,0.12,0.55,3.0,10,10,1.0,1.0,1.0,1.0,1.0,1.0,0.13735726475715637,0.6611111111111112,0.15709863603115082,0.8936160412280543,0.8936160412280543,0.0,0.18,0.9696969696969697,0.9696969696969697,81,1.0,13.74882698059082,1.7458534240722656,1.0,1.0,1.0,1.0,0.9280683387055936,2.0791657810004835,2.0791657810004835,2.0791657810004835,0.20791657810004835,512,246.2526099066657,8,1.0,1.0,1.0,64.0,64.0,0.2488857160005864,0.2488857160005864,1.0,1.0,1.0,64.0,64.0,0.2488857160005864,0.2488857160005864,1.0,1.0,1.0,64.0,64.0,0.2488857160005864,0.2488857160005864,1.0,2.0,2.0,128.0,128.0,0.5031824819998292,0.5031824819998292,0.6611111111111112
diverse,2,disease_to_no_disease,0.1,0.015,0.65,0.12,0.55,3.0,10,10,1.0,1.0,1.0,1.0,1.0,1.0,0.09323374181985855,0.7055555555555555,0.10619518160820007,0.7906041614789737,0.7906041614789737,0.0,0.7,0.7878787878787878,0.7878787878787878,81,1.0,7.795796871185303,0.7517876625061035,1.0,1.0,1.0,1.0,0.9305991122167592,2.0510196380000707,2.0510196380000707,2.0510196380000707,0.20510196380000706,512,249.63193453342367,8,1.0,1.0,1.0,64.0,64.0,0.24656599900026777,0.24656599900026777,1.0,1.0,1.0,64.0,64.0,0.24656599900026777,0.24656599900026777,1.0,1.0,1.0,64.0,64.0,0.24656599900026777,0.24656599900026777,1.0,2.0,2.0,128.0,128.0,0.4970192260007025,0.4970192260007025,0.7055555555555555
diverse,3,disease_to_no_disease,0.1,0.015,0.65,0.12,0.55,3.0,10,10,1.0,1.0,1.0,1.0,1.0,1.0,0.12081769853830338,0.6611111111111112,0.14064662158489227,0.7675616956689852,0.7675616956689852,0.1,0.8400000000000001,0.7575757575757576,0.7575757575757576,81,1.0,14.963743209838867,1.1401753425598145,0.9833333333333334,0.9,0.9,0.0,0.95565770649104,2.1297462559996347,2.1297462559996347,2.1297462559996347,0.21297462559996347,512,240.40422588261978,8,1.0,1.0,1.0,64.0,64.0,0.18067733799944108,0.18067733799944108,1.0,1.0,1.0,64.0,64.0,0.18067733799944108,0.18067733799944108,1.0,1.0,1.0,64.0,64.0,0.18067733799944108,0.18067733799944108,1.0,1.0,1.0,64.0,64.0,0.18067733799944108,0.18067733799944108,0.6611111111111112
diverse,4,no_disease_to_disease,0.1,0.015,0.65,0.12,0.55,3.0,10,10,1.0,1.0,1.0,1.0,1.0,1.0,0.17775869369506836,0.3944444444444445,0.1943543255329132,0.9930121487139159,0.9930121487139159,0.0,1.0,0.9090909090909091,0.9090909090909091,81,1.0,17.153932571411133,1.1015477180480957,1.0,1.0,1.0,1.0,0.9756761320549823,2.1048917770003754,2.1048917770003754,2.1048917770003754,0.21048917770003756,512,243.24290949040497,8,1.0,1.0,1.0,64.0,64.0,0.25311957800022356,0.25311957800022356,1.0,1.0,1.0,64.0,64.0,0.25311957800022356,0.25311957800022356,1.0,1.0,1.0,64.0,64.0,0.25311957800022356,0.25311957800022356,1.0,1.0,1.0,64.0,64.0,0.25311957800022356,0.25311957800022356,0.3944444444444445
diverse,5,no_disease_to_disease,0.1,0.015,0.65,0.12,0.55,3.0,10,10,1.0,1.0,1.0,1.0,1.0,1.0,0.09731677174568176,0.7333333333333333,0.124510757625103,0.8596990193874658,0.8596990193874658,0.1,0.9400000000000001,0.7575757575757576,0.7575757575757576,81,1.0,15.401052474975586,1.627458095550537,1.0,1.0,1.0,1.0,0.9276496977967564,2.061617420999937,2.061617420999937,2.061617420999937,0.20616174209999372,512,248.3486968943379,8,1.0,1.0,1.0,64.0,64.0,0.2582442240000091,0.2582442240000091,1.0,1.0,1.0,64.0,64.0,0.2582442240000091,0.2582442240000091,1.0,1.0,1.0,64.0,64.0,0.2582442240000091,0.2582442240000091,1.0,2.0,2.0,128.0,128.0,0.5166237220000767,0.5166237220000767,0.7333333333333333
diverse,6,no_disease_to_disease,0.1,0.015,0.65,0.12,0.55,3.0,10,10,1.0,1.0,1.0,1.0,1.0,1.0,0.18367347121238708,0.5388888888888889,0.20386451482772827,0.9275675154252147,0.9275675154252147,0.0,0.96,0.9393939393939394,0.9393939393939394,81,1.0,11.83625316619873,1.4603209495544434,1.0,1.0,1.0,1.0,0.9691940892756833,2.0185795100005635,2.0185795100005635,2.0185795100005635,0.20185795100005635,512,253.64371205762268,8,1.0,1.0,1.0,64.0,64.0,0.25171998600035295,0.25171998600035295,1.0,1.0,1.0,64.0,64.0,0.25171998600035295,0.25171998600035295,1.0,1.0,1.0,64.0,64.0,0.25171998600035295,0.25171998600035295,1.0,2.0,2.0,128.0,128.0,0.500985827000477,0.500985827000477,0.5388888888888889
diverse,7,no_disease_to_disease,0.1,0.015,0.65,0.12,0.55,3.0,10,10,1.0,1.0,1.0,1.0,1.0,1.0,0.10889756679534912,0.6444444444444445,0.10673734545707703,0.7860476635252026,0.7860476635252026,0.0,0.76,0.9090909090909091,0.9090909090909091,81,1.0,8.225273132324219,0.12973546981811523,0.9666666666666666,0.9,0.9,0.0,0.9384710012210012,2.150353969000207,2.150353969000207,2.150353969000207,0.21503539690002071,512,238.10033481978365,8,1.0,1.0,1.0,64.0,64.0,0.27371786200001225,0.27371786200001225,1.0,1.0,1.0,64.0,64.0,0.27371786200001225,0.27371786200001225,1.0,1.0,1.0,64.0,64.0,0.27371786200001225,0.27371786200001225,1.0,1.0,1.0,64.0,64.0,0.27371786200001225,0.27371786200001225,0.6444444444444445
sparse_diverse,0,disease_to_no_disease,0.11,0.02,0.55,0.1,0.66,2.0,10,10,1.0,1.0,1.0,1.0,1.0,1.0,0.09870516508817673,0.7222222222222223,0.09950670599937439,0.8205480233014079,0.8205480233014079,0.0,0.02,0.9090909090909091,0.9090909090909091,81,1.0,10.099331855773926,0.4564347267150879,0.95,0.9,0.9,0.0,0.9042110667110668,2.05227378499967,2.05227378499967,2.05227378499967,0.20522737849996703,512,249.4793841554051,8,1.0,1.0,1.0,64.0,64.0,0.2501870449996204,0.2501870449996204,1.0,1.0,1.0,64.0,64.0,0.2501870449996204,0.2501870449996204,1.0,1.0,1.0,64.0,64.0,0.2501870449996204,0.2501870449996204,1.0,1.0,1.0,64.0,64.0,0.2501870449996204,0.2501870449996204,0.7222222222222223
sparse_diverse,1,disease_to_no_disease,0.11,0.02,0.55,0.1,0.66,2.0,10,10,1.0,1.0,1.0,1.0,1.0,1.0,0.1032007485628128,0.711111111111111,0.11038190871477127,0.8188458516968163,0.8188458516968163,0.0,0.06,1.0,1.0,81,1.0,7.433680057525635,1.5033740997314453,1.0,1.0,1.0,1.0,0.9218019943019943,2.0766988079994917,2.0766988079994917,2.0766988079994917,0.20766988079994916,512,246.5451407916084,8,1.0,1.0,1.0,64.0,64.0,0.2560256360002313,0.2560256360002313,1.0,1.0,1.0,64.0,64.0,0.2560256360002313,0.2560256360002313,1.0,1.0,1.0,64.0,64.0,0.2560256360002313,0.2560256360002313,1.0,2.0,2.0,128.0,128.0,0.5100731209995502,0.5100731209995502,0.711111111111111
sparse_diverse,2,disease_to_no_disease,0.11,0.02,0.55,0.1,0.66,2.0,10,10,1.0,1.0,1.0,1.0,1.0,1.0,0.07380112260580063,0.7555555555555556,0.0647689551115036,0.7024528331793785,0.7024528331793785,0.0,0.76,0.8484848484848485,0.8484848484848485,81,1.0,2.7085466384887695,0.19620800018310547,0.85,0.6,0.6,0.0,0.9096510896510898,2.0445394859998487,2.0445394859998487,2.0445394859998487,0.20445394859998486,512,250.42314100850675,8,1.0,1.0,1.0,64.0,64.0,0.2489941750000071,0.2489941750000071,1.0,1.0,1.0,64.0,64.0,0.2489941750000071,0.2489941750000071,1.0,1.0,1.0,64.0,64.0,0.2489941750000071,0.2489941750000071,1.0,2.0,2.0,128.0,128.0,0.5000084240000433,0.5000084240000433,0.7555555555555556
sparse_diverse,3,disease_to_no_disease,0.11,0.02,0.55,0.1,0.66,2.0,10,10,1.0,1.0,1.0,1.0,1.0,1.0,0.08215651661157608,0.7500000000000001,0.09791233390569687,0.6596398854295907,0.6596398854295907,0.0,0.72,0.7272727272727273,0.7272727272727273,81,1.0,14.001012802124023,6.168448448181152,1.0,1.0,1.0,1.0,0.9353237503237504,2.0033831279997685,2.0033831279997685,2.0033831279997685,0.20033831279997685,512,255.56769089454923,8,1.0,1.0,1.0,64.0,64.0,0.18884858500041446,0.18884858500041446,1.0,1.0,1.0,64.0,64.0,0.18884858500041446,0.18884858500041446,1.0,1.0,1.0,64.0,64.0,0.18884858500041446,0.18884858500041446,1.0,1.0,1.0,64.0,64.0,0.18884858500041446,0.18884858500041446,0.7500000000000001
sparse_diverse,4,no_disease_to_disease,0.11,0.02,0.55,0.1,0.66,2.0,10,10,1.0,1.0,1.0,1.0,1.0,1.0,0.10748827457427979,0.49444444444444446,0.09998787939548492,0.7040839153444518,0.7040839153444518,0.0,0.96,0.9393939393939394,0.9393939393939394,81,1.0,7.040380954742432,0.6561379432678223,0.9666666666666666,0.9,0.9,0.0,0.9574964222797039,2.1041645919995062,2.1041645919995062,2.1041645919995062,0.2104164591999506,512,243.32697258890104,8,1.0,1.0,1.0,64.0,64.0,0.254694795999967,0.254694795999967,1.0,1.0,1.0,64.0,64.0,0.254694795999967,0.254694795999967,1.0,1.0,1.0,64.0,64.0,0.254694795999967,0.254694795999967,1.0,1.0,1.0,64.0,64.0,0.254694795999967,0.254694795999967,0.49444444444444446
sparse_diverse,5,no_disease_to_disease,0.11,0.02,0.55,0.1,0.66,2.0,10,10,1.0,1.0,1.0,1.0,1.0,1.0,0.10352853685617447,0.7611111111111111,0.0876191183924675,0.8601144207440008,0.8601144207440008,0.0,0.96,0.8181818181818182,0.8181818181818182,81,1.0,12.203008651733398,0.8475432395935059,0.9333333333333333,0.8,0.8,0.0,0.9180393217893217,2.0857759809996423,2.0857759809996423,2.0857759809996423,0.20857759809996423,512,245.47219100423987,8,1.0,1.0,1.0,64.0,64.0,0.25479208399974596,0.25479208399974596,1.0,1.0,1.0,64.0,64.0,0.25479208399974596,0.25479208399974596,1.0,1.0,1.0,64.0,64.0,0.25479208399974596,0.25479208399974596,1.0,1.0,1.0,64.0,64.0,0.25479208399974596,0.25479208399974596,0.7611111111111111
sparse_diverse,6,no_disease_to_disease,0.11,0.02,0.55,0.1,0.66,2.0,10,10,1.0,1.0,1.0,1.0,1.0,1.0,0.134386345744133,0.6888888888888889,0.11493058502674103,1.0194758171247098,1.0194758171247098,0.0,0.9800000000000001,0.9090909090909091,0.9090909090909091,81,1.0,14.62976360321045,2.470241069793701,1.0,1.0,1.0,1.0,0.9502624254830137,2.120713528000124,2.120713528000124,2.120713528000124,0.21207135280001238,512,241.428176526429,8,1.0,1.0,1.0,64.0,64.0,0.2504794270007551,0.2504794270007551,1.0,1.0,1.0,64.0,64.0,0.2504794270007551,0.2504794270007551,1.0,1.0,1.0,64.0,64.0,0.2504794270007551,0.2504794270007551,1.0,2.0,2.0,128.0,128.0,0.4972956890005662,0.4972956890005662,0.6888888888888889
sparse_diverse,7,no_disease_to_disease,0.11,0.02,0.55,0.1,0.66,2.0,10,10,1.0,1.0,1.0,1.0,1.0,1.0,0.08063682913780212,0.6777777777777778,0.05499236285686493,0.7371737639539514,0.7371737639539514,0.0,0.8800000000000001,0.8787878787878788,0.8787878787878788,81,1.0,4.428835868835449,0.8030247688293457,1.0,1.0,1.0,1.0,0.937067932067932,2.155415725000239,2.155415725000239,2.155415725000239,0.2155415725000239,512,237.54118245562267,8,1.0,1.0,1.0,64.0,64.0,0.29201359400030924,0.29201359400030924,1.0,1.0,1.0,64.0,64.0,0.29201359400030924,0.29201359400030924,1.0,1.0,1.0,64.0,64.0,0.29201359400030924,0.29201359400030924,1.0,1.0,1.0,64.0,64.0,0.29201359400030924,0.29201359400030924,0.6777777777777778
